# Matter power spectrum P(k) at redshift z=0
# for k=1.04685e-05 to 10.5321 h/Mpc,
# number of wavenumbers equal to 611
#    1:k (h/Mpc)              2:P (Mpc/h)^3        
       1.046849140809e-05       5.220033817183e+01 
       2.344290333290e-05       1.133590575667e+02 
       3.646345031135e-05       1.733745133506e+02 
       4.956567620953e-05       2.329256991632e+02 
       6.278571989140e-05       2.923950356743e+02 
       7.616064213359e-05       3.520670174066e+02 
       8.972876312009e-05       4.121836461764e+02 
       1.035300150666e-04       4.729670820469e+02 
       1.176063145582e-04       5.346312091324e+02 
       1.320019592190e-04       5.973886088349e+02 
       1.467640533345e-04       6.614553840410e+02 
       1.619429669800e-04       7.270548914564e+02 
       1.775928330079e-04       7.944209232463e+02 
       1.937720858397e-04       8.638005945907e+02 
       2.105440452810e-04       9.354571139484e+02 
       2.279775473986e-04       1.009672501009e+03 
       2.461476226662e-04       1.086750325895e+03 
       2.651362188780e-04       1.167018448619e+03 
       2.850329624337e-04       1.250831763357e+03 
       3.059359461624e-04       1.338574888258e+03 
       3.279525244684e-04       1.430664707620e+03 
       3.512000868083e-04       1.527552640868e+03 
       3.758067679555e-04       1.629726450508e+03 
       4.019120379359e-04       1.737711332285e+03 
       4.296670959971e-04       1.852069963487e+03 
       4.592349721928e-04       1.973401124133e+03 
       4.907902187338e-04       2.102336385647e+03 
       5.245180541642e-04       2.239534363098e+03 
       5.606128113638e-04       2.385671997605e+03 
       5.992755419706e-04       2.541432285883e+03 
       6.407106531805e-04       2.707488215379e+03 
       6.851215064256e-04       2.884482694084e+03 
       7.327049973768e-04       3.073004890643e+03 
       7.836452634697e-04       3.273563726811e+03 
       8.381068191921e-04       3.486560158477e+03 
       8.962275784381e-04       3.712260151695e+03 
       9.581123530448e-04       3.950770980140e+03 
       1.023827477408e-03       4.202023608123e+03 
       1.093397167688e-03       4.465763268377e+03 
       1.166802068348e-03       4.741550037046e+03 
       1.243980187374e-03       5.028769913069e+03 
       1.324830123093e-03       5.326655276409e+03 
       1.409216205131e-03       5.634296708751e+03 
       1.496974969451e-03       5.950697399652e+03 
       1.587922298151e-03       6.274833814057e+03 
       1.681860580802e-03       6.605632691369e+03 
       1.778585369508e-03       6.942022904306e+03 
       1.877891163238e-03       7.282959432595e+03 
       1.979576127581e-03       7.627442204734e+03 
       2.083445703585e-03       7.974530129834e+03 
       2.189315168197e-03       8.323349691667e+03 
       2.297011276117e-03       8.673099971998e+03 
       2.406373144121e-03       9.023054086825e+03 
       2.517252543393e-03       9.372557985029e+03 
       2.629513752891e-03       9.721027793892e+03 
       2.743033105250e-03       1.006794603220e+04 
       2.857698332226e-03       1.041285565242e+04 
       2.973407792797e-03       1.075535910242e+04 
       3.090069645929e-03       1.109510467548e+04 
       3.207601012343e-03       1.143179157979e+04 
       3.325927155632e-03       1.176515899572e+04 
       3.444980702313e-03       1.209498297927e+04 
       3.564700912408e-03       1.242106933325e+04 
       3.685033006459e-03       1.274325724569e+04 
       3.805927550848e-03       1.306140761546e+04 
       3.927339900664e-03       1.337540844683e+04 
       4.049229697628e-03       1.368515856162e+04 
       4.171560419590e-03       1.399058332026e+04 
       4.294298977609e-03       1.429161904464e+04 
       4.417415356409e-03       1.458821377059e+04 
       4.540882294077e-03       1.488032963624e+04 
       4.664674997000e-03       1.516793835014e+04 
       4.788770886328e-03       1.545102169703e+04 
       4.913149372509e-03       1.572957283356e+04 
       5.037791654784e-03       1.600358568767e+04 
       5.162680542801e-03       1.627305879294e+04 
       5.287800297841e-03       1.653800571087e+04 
       5.413136491381e-03       1.679843579302e+04 
       5.538675879014e-03       1.705437222555e+04 
       5.664406287936e-03       1.730583206878e+04 
       5.790316516449e-03       1.755284456736e+04 
       5.916396244091e-03       1.779542997868e+04 
       6.042635951187e-03       1.803362223693e+04 
       6.169026846731e-03       1.826745535880e+04 
       6.295560803677e-03       1.849695258296e+04 
       6.422230300795e-03       1.872215631536e+04 
       6.549028370360e-03       1.894309921097e+04 
       6.675948551041e-03       1.915981233557e+04 
       6.802984845400e-03       1.937234228353e+04 
       6.930131681530e-03       1.958072404915e+04 
       7.057383878354e-03       1.978499327291e+04 
       7.184736614224e-03       1.998518988076e+04 
       7.312185398459e-03       2.018135901765e+04 
       7.439726045512e-03       2.037353021704e+04 
       7.567354651505e-03       2.056176752012e+04 
       7.695067572888e-03       2.074608538721e+04 
       7.822861407000e-03       2.092654204874e+04 
       7.950732974349e-03       2.110317431184e+04 
       8.078679302445e-03       2.127602496116e+04 
       8.206697611022e-03       2.144513881597e+04 
       8.334785298529e-03       2.161054201377e+04 
       8.462939929753e-03       2.177230578068e+04 
       8.591159224487e-03       2.193045195779e+04 
       8.719441047124e-03       2.208501969812e+04 
       8.847783397110e-03       2.223604195502e+04 
       8.976184400164e-03       2.238358223910e+04 
       9.104642300204e-03       2.252766138178e+04 
       9.233155451908e-03       2.266832426290e+04 
       9.361722313872e-03       2.280560890053e+04 
       9.490341442280e-03       2.293955781947e+04 
       9.619011485082e-03       2.307020915744e+04 
       9.747731176599e-03       2.319758843103e+04 
       9.876499332552e-03       2.332175305405e+04 
       1.000531484545e-02       2.344271728401e+04 
       1.013417668033e-02       2.356054031729e+04 
       1.026308387080e-02       2.367524616777e+04 
       1.039203551541e-02       2.378687531555e+04 
       1.052103077421e-02       2.389546685361e+04 
       1.065006886565e-02       2.400105267630e+04 
       1.077914906364e-02       2.410366335289e+04 
       1.090827069482e-02       2.420334203728e+04 
       1.103743313607e-02       2.430012567451e+04 
       1.116663581216e-02       2.439404545673e+04 
       1.129587819357e-02       2.448513228557e+04 
       1.142515979446e-02       2.457342653461e+04 
       1.155448017080e-02       2.465895528542e+04 
       1.168383891861e-02       2.474175206847e+04 
       1.181323567237e-02       2.482185872642e+04 
       1.194267010343e-02       2.489929347868e+04 
       1.207214191868e-02       2.497410870897e+04 
       1.220165085921e-02       2.504631119596e+04 
       1.233119669907e-02       2.511596759915e+04 
       1.246077924420e-02       2.518308616298e+04 
       1.259039833132e-02       2.524769054176e+04 
       1.272005382697e-02       2.530983643417e+04 
       1.284974562664e-02       2.536953616561e+04 
       1.297947365388e-02       2.542683837457e+04 
       1.310923785958e-02       2.548175286649e+04 
       1.323903822118e-02       2.553432220277e+04 
       1.336887474209e-02       2.558456898373e+04 
       1.349874745101e-02       2.563253732324e+04 
       1.362865640141e-02       2.567824821244e+04 
       1.375860167099e-02       2.572170557747e+04 
       1.388858336121e-02       2.576296465345e+04 
       1.401860159688e-02       2.580205022213e+04 
       1.414865652573e-02       2.583898957680e+04 
       1.427874831808e-02       2.587379427734e+04 
       1.440887716652e-02       2.590650548838e+04 
       1.453904328559e-02       2.593715281333e+04 
       1.466924691159e-02       2.596575409016e+04 
       1.479948830228e-02       2.599233645654e+04 
       1.492976773673e-02       2.601692927315e+04 
       1.506008551513e-02       2.603955218020e+04 
       1.519044195868e-02       2.606024501433e+04 
       1.532083740943e-02       2.607902275126e+04 
       1.545127223022e-02       2.609592304432e+04 
       1.558174680461e-02       2.611096100882e+04 
       1.571226153681e-02       2.612416181137e+04 
       1.584281685170e-02       2.613555880407e+04 
       1.597341319479e-02       2.614515196301e+04 
       1.610405103226e-02       2.615297867128e+04 
       1.623473085099e-02       2.615906737817e+04 
       1.636545315865e-02       2.616341907262e+04 
       1.649621848373e-02       2.616609542505e+04 
       1.662702737567e-02       2.616708005778e+04 
       1.675788040498e-02       2.616641101308e+04 
       1.688877816336e-02       2.616413079046e+04 
       1.701972126387e-02       2.616024015793e+04 
       1.715071034106e-02       2.615477325059e+04 
       1.728174605121e-02       2.614774110075e+04 
       1.741282907251e-02       2.613917358489e+04 
       1.754396010529e-02       2.612907580924e+04 
       1.767513987222e-02       2.611749834657e+04 
       1.780636911863e-02       2.610446313643e+04 
       1.793764861274e-02       2.608994500738e+04 
       1.806897914596e-02       2.607402507573e+04 
       1.820036153318e-02       2.605667151510e+04 
       1.833179661312e-02       2.603797624947e+04 
       1.846328524865e-02       2.601788251589e+04 
       1.859482832715e-02       2.599642392740e+04 
       1.872642676089e-02       2.597366579894e+04 
       1.885808148739e-02       2.594958674958e+04 
       1.898979346988e-02       2.592423171571e+04 
       1.912156369767e-02       2.589761310118e+04 
       1.925339318662e-02       2.586975086196e+04 
       1.938528297958e-02       2.584065720029e+04 
       1.951723414690e-02       2.581037265939e+04 
       1.964924778691e-02       2.577890546945e+04 
       1.978132502638e-02       2.574626310822e+04 
       1.991346702117e-02       2.571249023427e+04 
       2.004567495665e-02       2.567754429734e+04 
       2.017795004836e-02       2.564151631791e+04 
       2.031029354258e-02       2.560438614913e+04 
       2.044270671692e-02       2.556622374574e+04 
       2.057519088097e-02       2.552699187509e+04 
       2.070774737695e-02       2.548672344361e+04 
       2.084037758038e-02       2.544543271967e+04 
       2.097308290079e-02       2.540314775457e+04 
       2.110586478242e-02       2.535987555644e+04 
       2.123872470496e-02       2.531564747413e+04 
       2.137166418434e-02       2.527046928703e+04 
       2.150468477352e-02       2.522438459555e+04 
       2.163778806327e-02       2.517739848480e+04 
       2.177097568305e-02       2.512946905015e+04 
       2.190424930187e-02       2.508068832160e+04 
       2.203761062915e-02       2.503104910168e+04 
       2.217106141571e-02       2.498058809433e+04 
       2.230460345465e-02       2.492929622571e+04 
       2.243823858241e-02       2.487715914549e+04 
       2.257196867970e-02       2.482427437404e+04 
       2.270579567260e-02       2.477056994331e+04 
       2.283972153363e-02       2.471607497829e+04 
       2.297374828284e-02       2.466094550442e+04 
       2.310787798898e-02       2.460502008158e+04 
       2.324211277066e-02       2.454835196661e+04 
       2.337645479759e-02       2.449099777304e+04 
       2.351090629182e-02       2.443291880680e+04 
       2.364546952903e-02       2.437427965001e+04 
       2.378014683990e-02       2.431495365040e+04 
       2.391494061145e-02       2.425495879772e+04 
       2.404985328850e-02       2.419430981363e+04 
       2.418488737510e-02       2.413304412578e+04 
       2.432004543610e-02       2.407120565931e+04 
       2.445533009864e-02       2.400878697597e+04 
       2.459074405384e-02       2.394577938413e+04 
       2.472629005842e-02       2.388219675412e+04 
       2.486197093642e-02       2.381809012059e+04 
       2.499778958103e-02       2.375341478646e+04 
       2.513374895635e-02       2.368823816608e+04 
       2.526985209934e-02       2.362258261925e+04 
       2.540610212177e-02       2.355645737008e+04 
       2.554250221222e-02       2.348983090780e+04 
       2.567905563821e-02       2.342269807145e+04 
       2.581576574833e-02       2.335514249786e+04 
       2.595263597449e-02       2.328710753702e+04 
       2.608966983422e-02       2.321869002585e+04 
       2.622687093308e-02       2.314983893547e+04 
       2.636424296713e-02       2.308059037263e+04 
       2.650178972545e-02       2.301091445936e+04 
       2.663951509286e-02       2.294087345287e+04 
       2.677742305259e-02       2.287045606647e+04 
       2.691551768916e-02       2.279971021429e+04 
       2.705380319129e-02       2.272857729598e+04 
       2.719228385497e-02       2.265712425575e+04 
       2.733096408661e-02       2.258530519785e+04 
       2.746984840627e-02       2.251323499713e+04 
       2.760894145110e-02       2.244080569877e+04 
       2.774824797880e-02       2.236816690837e+04 
       2.788777287131e-02       2.229511825776e+04 
       2.802752113853e-02       2.222187139959e+04 
       2.816749792229e-02       2.214835061399e+04 
       2.830770850039e-02       2.207455563048e+04 
       2.844815829080e-02       2.200052821669e+04 
       2.858885285609e-02       2.192624013948e+04 
       2.872979790796e-02       2.185180175812e+04 
       2.887099931194e-02       2.177707409355e+04 
       2.901246309235e-02       2.170207204906e+04 
       2.915419543739e-02       2.162696139512e+04 
       2.929620270443e-02       2.155167294443e+04 
       2.943849142560e-02       2.147619477941e+04 
       2.958106831346e-02       2.140051421285e+04 
       2.972394026703e-02       2.132468698912e+04 
       2.986711437803e-02       2.124865868188e+04 
       3.001059793733e-02       2.117252525093e+04 
       3.015439844177e-02       2.109626960406e+04 
       3.029852360114e-02       2.101979099983e+04 
       3.044298134556e-02       2.094324413662e+04 
       3.058777983316e-02       2.086659424967e+04 
       3.073292745804e-02       2.078977907201e+04 
       3.087843285864e-02       2.071289206308e+04 
       3.102430492642e-02       2.063585681346e+04 
       3.117055281498e-02       2.055882232731e+04 
       3.131718594959e-02       2.048165466555e+04 
       3.146421403705e-02       2.040440905848e+04 
       3.161164707616e-02       2.032708273247e+04 
       3.175949536855e-02       2.024970294519e+04 
       3.190776953007e-02       2.017226398263e+04 
       3.205648050266e-02       2.009475612512e+04 
       3.220563956689e-02       2.001713605041e+04 
       3.235525835496e-02       1.993952059051e+04 
       3.250534886444e-02       1.986184960601e+04 
       3.265592347266e-02       1.978416944466e+04 
       3.280699495172e-02       1.970650392358e+04 
       3.295857648437e-02       1.962869908778e+04 
       3.311068168063e-02       1.955097800547e+04 
       3.326332459524e-02       1.947315818531e+04 
       3.341651974602e-02       1.939540319574e+04 
       3.357028213319e-02       1.931763679872e+04 
       3.372462725969e-02       1.923975762368e+04 
       3.387957115258e-02       1.916200919550e+04 
       3.403513038558e-02       1.908421684004e+04 
       3.419132210281e-02       1.900641729493e+04 
       3.434816404389e-02       1.892865720390e+04 
       3.450567457032e-02       1.885087560833e+04 
       3.466387269341e-02       1.877312829532e+04 
       3.482277810380e-02       1.869539175265e+04 
       3.498241120258e-02       1.861773632874e+04 
       3.514279313426e-02       1.854000211210e+04 
       3.530394582169e-02       1.846241478928e+04 
       3.546589200297e-02       1.838475868393e+04 
       3.562865527060e-02       1.830715544385e+04 
       3.579226011305e-02       1.822958434821e+04 
       3.595673195871e-02       1.815212838307e+04 
       3.612209722277e-02       1.807459890224e+04 
       3.628838335687e-02       1.799714060241e+04 
       3.645561890196e-02       1.791975575218e+04 
       3.662383354454e-02       1.784234015598e+04 
       3.679305817662e-02       1.776499913391e+04 
       3.696332495946e-02       1.768767735966e+04 
       3.713466739176e-02       1.761044293227e+04 
       3.730712038233e-02       1.753315536827e+04 
       3.748072032773e-02       1.745599681437e+04 
       3.765550519536e-02       1.737889385010e+04 
       3.783151461234e-02       1.730175125947e+04 
       3.800878996073e-02       1.722468373183e+04 
       3.818737447964e-02       1.714764878154e+04 
       3.836731337478e-02       1.707062011037e+04 
       3.854865393623e-02       1.699363295161e+04 
       3.873144566494e-02       1.691671775616e+04 
       3.891574040909e-02       1.683980546995e+04 
       3.910159251086e-02       1.676292573409e+04 
       3.928905896483e-02       1.668603523440e+04 
       3.947819958908e-02       1.660919592374e+04 
       3.966907721009e-02       1.653235914321e+04 
       3.986175786298e-02       1.645552932593e+04 
       4.005631100842e-02       1.637875299915e+04 
       4.025280976812e-02       1.630187261324e+04 
       4.045133118057e-02       1.622506658951e+04 
       4.065195647939e-02       1.614824961480e+04 
       4.085477139645e-02       1.607142154414e+04 
       4.105986649264e-02       1.599458382961e+04 
       4.126733751924e-02       1.591767849152e+04 
       4.147728581327e-02       1.584072042966e+04 
       4.168981873081e-02       1.576378570408e+04 
       4.190505012252e-02       1.568675268541e+04 
       4.212310085654e-02       1.560963370773e+04 
       4.234409939426e-02       1.553249403298e+04 
       4.256818242556e-02       1.545525593408e+04 
       4.279549557094e-02       1.537799370668e+04 
       4.302619415888e-02       1.530056453290e+04 
       4.326044408851e-02       1.522302599105e+04 
       4.349842278842e-02       1.514539124306e+04 
       4.374032028508e-02       1.506756485588e+04 
       4.398634039554e-02       1.498961896934e+04 
       4.423670206220e-02       1.491152288630e+04 
       4.449164084984e-02       1.483321708430e+04 
       4.475141062896e-02       1.475469094630e+04 
       4.501628547313e-02       1.467594538359e+04 
       4.528656180344e-02       1.459696751539e+04 
       4.556256081871e-02       1.451768425925e+04 
       4.584463125746e-02       1.443810781452e+04 
       4.613315254607e-02       1.435824648639e+04 
       4.642853839839e-02       1.427796770039e+04 
       4.673124094459e-02       1.419735813636e+04 
       4.704175548293e-02       1.411629823885e+04 
       4.736062596734e-02       1.403480279213e+04 
       4.768845136776e-02       1.395276861555e+04 
       4.802589306972e-02       1.387020780318e+04 
       4.837368351651e-02       1.378703616907e+04 
       4.873263634367e-02       1.370323541896e+04 
       4.910365831340e-02       1.361869229698e+04 
       4.948776342966e-02       1.353334151237e+04 
       4.988608970742e-02       1.344720798337e+04 
       5.029991918682e-02       1.336004527995e+04 
       5.073070193280e-02       1.327187741916e+04 
       5.118008495113e-02       1.318249343688e+04 
       5.164994719479e-02       1.309187352272e+04 
       5.214244214378e-02       1.299973122901e+04 
       5.266004983246e-02       1.290600786884e+04 
       5.320564068855e-02       1.281037999789e+04 
       5.378255415092e-02       1.271267720141e+04 
       5.439469575080e-02       1.261258522366e+04 
       5.504665714576e-02       1.250968996273e+04 
       5.574386438888e-02       1.240350294124e+04 
       5.649276025419e-02       1.229355257946e+04 
       5.730102618202e-02       1.217896287191e+04 
       5.817784724415e-02       1.205887437133e+04 
       5.913421727998e-02       1.193195372829e+04 
       6.018326700056e-02       1.179657770173e+04 
       6.134056850684e-02       1.165057781016e+04 
       6.262431502106e-02       1.149095161343e+04 
