# Matter power spectrum P(k) at redshift z=0
# for k=1.04813e-05 to 12.5092 h/Mpc,
# number of wavenumbers equal to 604
#    1:k (h/Mpc)              2:P (Mpc/h)^3        
       1.048126733414e-05       5.225099831393e+01 
       2.389118893788e-05       1.154197322649e+02 
       3.735106239316e-05       1.773951356941e+02 
       5.090014217667e-05       2.389034761581e+02 
       6.457837497209e-05       3.003542310409e+02 
       7.842678559291e-05       3.620537991773e+02 
       9.248787607271e-05       4.242644851906e+02 
       1.068060436441e-04       4.872285547639e+02 
       1.214280233676e-04       5.511805758410e+02 
       1.364033612064e-04       6.163549289359e+02 
       1.517849233297e-04       6.829910894145e+02 
       1.676294472997e-04       7.513377658608e+02 
       1.839981404777e-04       8.216564864328e+02 
       2.009573303463e-04       8.942249134542e+02 
       2.185791703329e-04       9.693400192763e+02 
       2.369424029202e-04       1.047321260879e+03 
       2.561331790571e-04       1.128513732233e+03 
       2.762459287871e-04       1.213291342791e+03 
       2.973842721339e-04       1.302059935839e+03 
       3.196619511127e-04       1.395260286284e+03 
       3.432037526727e-04       1.493370819584e+03 
       3.681463778517e-04       1.596909851974e+03 
       3.946391939891e-04       1.706437076883e+03 
       4.228447843925e-04       1.822553891191e+03 
       4.529391839637e-04       1.945902142377e+03 
       4.851116616732e-04       2.077160693917e+03 
       5.195638848737e-04       2.217039172217e+03 
       5.565082819896e-04       2.366268223635e+03 
       5.961654175209e-04       2.525585637765e+03 
       6.387602172853e-04       2.695717878667e+03 
       6.845169440123e-04       2.877356847717e+03 
       7.336529330060e-04       3.071132244105e+03 
       7.863712564151e-04       3.277580598799e+03 
       8.428526811242e-04       3.497112744637e+03 
       9.032474900717e-04       3.729982405957e+03 
       9.676679035663e-04       3.976259029907e+03 
       1.036181911661e-03       4.235808296884e+03 
       1.108809266316e-03       4.508282935810e+03 
       1.185520168693e-03       4.793126101394e+03 
       1.266236852196e-03       5.089587164343e+03 
       1.350837876127e-03       5.396748801804e+03 
       1.439164597813e-03       5.713562235267e+03 
       1.531029059719e-03       6.038868474065e+03 
       1.626222451521e-03       6.371480317900e+03 
       1.724523377487e-03       6.710202511402e+03 
       1.825705333308e-03       7.053845881095e+03 
       1.929543015505e-03       7.401264977015e+03 
       2.035817298682e-03       7.751377248118e+03 
       2.144318887124e-03       8.103176451626e+03 
       2.254850763649e-03       8.455739932006e+03 
       2.367229622188e-03       8.808232767673e+03 
       2.481286491860e-03       9.159905863256e+03 
       2.596866752837e-03       9.510094263027e+03 
       2.713829720458e-03       9.858211969191e+03 
       2.832047943176e-03       1.020374674115e+04 
       2.951406328429e-03       1.054625325071e+04 
       3.071801181848e-03       1.088534736783e+04 
       3.193139221041e-03       1.122070068737e+04 
       3.315336605846e-03       1.155203407605e+04 
       3.438318012141e-03       1.187910882899e+04 
       3.562015765309e-03       1.220172756472e+04 
       3.686369041615e-03       1.251972392525e+04 
       3.811323140358e-03       1.283296376838e+04 
       3.936828826004e-03       1.314133697453e+04 
       4.062841737300e-03       1.344475526777e+04 
       4.189321858982e-03       1.374315083246e+04 
       4.316233051078e-03       1.403647211435e+04 
       4.443542630517e-03       1.432468475878e+04 
       4.571220999873e-03       1.460776277175e+04 
       4.699241318267e-03       1.488569677513e+04 
       4.827579209806e-03       1.515847477270e+04 
       4.956212505312e-03       1.542611409469e+04 
       5.085121013516e-03       1.568863652035e+04 
       5.214286318253e-03       1.594605678350e+04 
       5.343691598602e-03       1.619840742573e+04 
       5.473321469243e-03       1.644570690494e+04 
       5.603161838622e-03       1.668801094552e+04 
       5.733199782816e-03       1.692533665798e+04 
       5.863423433221e-03       1.715773940179e+04 
       5.993821876439e-03       1.738526590368e+04 
       6.124385064923e-03       1.760795874543e+04 
       6.255103737119e-03       1.782586464686e+04 
       6.385969346009e-03       1.803904740082e+04 
       6.516973995082e-03       1.824754364101e+04 
       6.648110380882e-03       1.845140905964e+04 
       6.779371741395e-03       1.865070227772e+04 
       6.910751809612e-03       1.884546793734e+04 
       7.042244771698e-03       1.903576680633e+04 
       7.173845229263e-03       1.922165734506e+04 
       7.305548165277e-03       1.940318307986e+04 
       7.437348913249e-03       1.958041265997e+04 
       7.569243129318e-03       1.975339798259e+04 
       7.701226766947e-03       1.992218326935e+04 
       7.833296053951e-03       2.008683641072e+04 
       7.965447471618e-03       2.024741434523e+04 
       8.097677735708e-03       2.040397169786e+04 
       8.229983779146e-03       2.055654705558e+04 
       8.362362736236e-03       2.070522017689e+04 
       8.494811928243e-03       2.085002780543e+04 
       8.627328850221e-03       2.099102951452e+04 
       8.759911158953e-03       2.112826356276e+04 
       8.892556661913e-03       2.126181398209e+04 
       9.025263307132e-03       2.139170518355e+04 
       9.158029173913e-03       2.151799106518e+04 
       9.290852464290e-03       2.164073396943e+04 
       9.423731495178e-03       2.175997064600e+04 
       9.556664691151e-03       2.187575813557e+04 
       9.689650577785e-03       2.198813509292e+04 
       9.822687775525e-03       2.209715777300e+04 
       9.955774994027e-03       2.220287408588e+04 
       1.008891102693e-02       2.230532276085e+04 
       1.022209474704e-02       2.240455718119e+04 
       1.035532510184e-02       2.250062532208e+04 
       1.048860110938e-02       2.259356143711e+04 
       1.062192185447e-02       2.268341830617e+04 
       1.075528648510e-02       2.277023356444e+04 
       1.088869420919e-02       2.285406165396e+04 
       1.102214429151e-02       2.293493103426e+04 
       1.115563605092e-02       2.301289710155e+04 
       1.128916885767e-02       2.308798955668e+04 
       1.142274213104e-02       2.316026526361e+04 
       1.155635533702e-02       2.322974802762e+04 
       1.169000798627e-02       2.329648427336e+04 
       1.182369963212e-02       2.336051765232e+04 
       1.195742986876e-02       2.342188397230e+04 
       1.209119832962e-02       2.348061921741e+04 
       1.222500468571e-02       2.353676936510e+04 
       1.235884864423e-02       2.359037143159e+04 
       1.249272994722e-02       2.364146000636e+04 
       1.262664837025e-02       2.369007226781e+04 
       1.276060372132e-02       2.373624842708e+04 
       1.289459583971e-02       2.378001775912e+04 
       1.302862459505e-02       2.382142153638e+04 
       1.316268988633e-02       2.386049567860e+04 
       1.329679164106e-02       2.389727358355e+04 
       1.343092981446e-02       2.393178776356e+04 
       1.356510438874e-02       2.396407344195e+04 
       1.369931537242e-02       2.399416455155e+04 
       1.383356279966e-02       2.402208088840e+04 
       1.396784672975e-02       2.404787615879e+04 
       1.410216724651e-02       2.407156594653e+04 
       1.423652445786e-02       2.409318497300e+04 
       1.437091849534e-02       2.411275781470e+04 
       1.450534951373e-02       2.413032595572e+04 
       1.463981769068e-02       2.414591452251e+04 
       1.477432322636e-02       2.415954813715e+04 
       1.490886634319e-02       2.417127122164e+04 
       1.504344728559e-02       2.418109847570e+04 
       1.517806631971e-02       2.418906744151e+04 
       1.531272373324e-02       2.419519880768e+04 
       1.544741983529e-02       2.419953577571e+04 
       1.558215495616e-02       2.420208847150e+04 
       1.571692944728e-02       2.420290169895e+04 
       1.585174368112e-02       2.420199169195e+04 
       1.598659805106e-02       2.419938890262e+04 
       1.612149297143e-02       2.419510039274e+04 
       1.625642887742e-02       2.418916778800e+04 
       1.639140622510e-02       2.418161419589e+04 
       1.652642549145e-02       2.417246987564e+04 
       1.666148717440e-02       2.416174574276e+04 
       1.679659179286e-02       2.414948016133e+04 
       1.693173988685e-02       2.413570288272e+04 
       1.706693201757e-02       2.412042647265e+04 
       1.720216876750e-02       2.410367124810e+04 
       1.733745074059e-02       2.408547836603e+04 
       1.747277856236e-02       2.406585472706e+04 
       1.760815288011e-02       2.404483392470e+04 
       1.774357436310e-02       2.402243929806e+04 
       1.787904370275e-02       2.399867961871e+04 
       1.801456161287e-02       2.397360759978e+04 
       1.815012882990e-02       2.394720075148e+04 
       1.828574611318e-02       2.391952009497e+04 
       1.842141424521e-02       2.389058078469e+04 
       1.855713403196e-02       2.386039916566e+04 
       1.869290630315e-02       2.382896705101e+04 
       1.882873191263e-02       2.379637342853e+04 
       1.896461173865e-02       2.376257501898e+04 
       1.910054668429e-02       2.372763700776e+04 
       1.923653767780e-02       2.369154950850e+04 
       1.937258567300e-02       2.365432975941e+04 
       1.950869164969e-02       2.361604677833e+04 
       1.964485661410e-02       2.357666641143e+04 
       1.978108159929e-02       2.353623696548e+04 
       1.991736766567e-02       2.349477512759e+04 
       2.005371590146e-02       2.345229168963e+04 
       2.019012742316e-02       2.340880488071e+04 
       2.032660337614e-02       2.336432273006e+04 
       2.046314493509e-02       2.331892147056e+04 
       2.059975330467e-02       2.327256336378e+04 
       2.073642972002e-02       2.322529119233e+04 
       2.087317544737e-02       2.317712034777e+04 
       2.100999178470e-02       2.312804750087e+04 
       2.114688006231e-02       2.307809240379e+04 
       2.128384164354e-02       2.302733005738e+04 
       2.142087792543e-02       2.297573190811e+04 
       2.155799033940e-02       2.292329302076e+04 
       2.169518035204e-02       2.287007819330e+04 
       2.183244946578e-02       2.281609839723e+04 
       2.196979921972e-02       2.276135076510e+04 
       2.210723119042e-02       2.270585863890e+04 
       2.224474699271e-02       2.264959832806e+04 
       2.238234828054e-02       2.259266580084e+04 
       2.252003674788e-02       2.253505054989e+04 
       2.265781412960e-02       2.247672527553e+04 
       2.279568220241e-02       2.241773980284e+04 
       2.293364278582e-02       2.235806275836e+04 
       2.307169774315e-02       2.229785072736e+04 
       2.320984898250e-02       2.223693606733e+04 
       2.334809845788e-02       2.217544963748e+04 
       2.348644817024e-02       2.211338454070e+04 
       2.362490016859e-02       2.205074906435e+04 
       2.376345655120e-02       2.198753322754e+04 
       2.390211946675e-02       2.192379144550e+04 
       2.404089111557e-02       2.185948608621e+04 
       2.417977375091e-02       2.179467519580e+04 
       2.431876968026e-02       2.172937042067e+04 
       2.445788126666e-02       2.166356622157e+04 
       2.459711093013e-02       2.159726496822e+04 
       2.473646114909e-02       2.153055790349e+04 
       2.487593446183e-02       2.146335413534e+04 
       2.501553346803e-02       2.139572061267e+04 
       2.515526083039e-02       2.132764853251e+04 
       2.529511927618e-02       2.125923352891e+04 
       2.543511159896e-02       2.119036050988e+04 
       2.557524066032e-02       2.112104069171e+04 
       2.571550939164e-02       2.105146981498e+04 
       2.585592079595e-02       2.098150684416e+04 
       2.599647794986e-02       2.091112937557e+04 
       2.613718400549e-02       2.084046953855e+04 
       2.627804219253e-02       2.076946263285e+04 
       2.641905582034e-02       2.069818254407e+04 
       2.656022828012e-02       2.062652386665e+04 
       2.670156304717e-02       2.055461871678e+04 
       2.684306368318e-02       2.048240006847e+04 
       2.698473383866e-02       2.040994650762e+04 
       2.712657725544e-02       2.033722426737e+04 
       2.726859776919e-02       2.026422366049e+04 
       2.741079931212e-02       2.019106204555e+04 
       2.755318591570e-02       2.011756959612e+04 
       2.769576171353e-02       2.004390794295e+04 
       2.783853094431e-02       1.997001721207e+04 
       2.798149795482e-02       1.989595403792e+04 
       2.812466720315e-02       1.982167549080e+04 
       2.826804326196e-02       1.974725953410e+04 
       2.841163082185e-02       1.967263999284e+04 
       2.855543469491e-02       1.959793621879e+04 
       2.869945981835e-02       1.952294409406e+04 
       2.884371125827e-02       1.944787571453e+04 
       2.898819421363e-02       1.937272037373e+04 
       2.913291402026e-02       1.929734533471e+04 
       2.927787615516e-02       1.922192391305e+04 
       2.942308624079e-02       1.914637974150e+04 
       2.956855004973e-02       1.907071557080e+04 
       2.971427350932e-02       1.899495134049e+04 
       2.986026270664e-02       1.891913915511e+04 
       3.000652389357e-02       1.884318229646e+04 
       3.015306349215e-02       1.876718940750e+04 
       3.029988810006e-02       1.869117943419e+04 
       3.044700449639e-02       1.861500960007e+04 
       3.059441964759e-02       1.853891534244e+04 
       3.074214071374e-02       1.846268672309e+04 
       3.089017505497e-02       1.838643930974e+04 
       3.103853023826e-02       1.831013335673e+04 
       3.118721404444e-02       1.823389880159e+04 
       3.133623447552e-02       1.815758368954e+04 
       3.148559976235e-02       1.808123002492e+04 
       3.163531837254e-02       1.800489355578e+04 
       3.178539901884e-02       1.792858012237e+04 
       3.193585066776e-02       1.785224338622e+04 
       3.208668254867e-02       1.777592653008e+04 
       3.223790416324e-02       1.769969540492e+04 
       3.238952529533e-02       1.762343495085e+04 
       3.254155602132e-02       1.754718448058e+04 
       3.269400672095e-02       1.747097271153e+04 
       3.284688808859e-02       1.739482784504e+04 
       3.300021114509e-02       1.731863888909e+04 
       3.315398725017e-02       1.724263126972e+04 
       3.330822811542e-02       1.716657816551e+04 
       3.346294581784e-02       1.709060836131e+04 
       3.361815281417e-02       1.701467781805e+04 
       3.377386195580e-02       1.693888531837e+04 
       3.393008650447e-02       1.686304517990e+04 
       3.408684014876e-02       1.678733139655e+04 
       3.424413702136e-02       1.671171985683e+04 
       3.440199171730e-02       1.663616763826e+04 
       3.456041931303e-02       1.656069754316e+04 
       3.471943538653e-02       1.648527157744e+04 
       3.487905603848e-02       1.641002964389e+04 
       3.503929791454e-02       1.633474011911e+04 
       3.520017822882e-02       1.625968456640e+04 
       3.536171478862e-02       1.618464411961e+04 
       3.552392602055e-02       1.610975982503e+04 
       3.568683099802e-02       1.603490947184e+04 
       3.585044947036e-02       1.596021900678e+04 
       3.601480189351e-02       1.588558953527e+04 
       3.617990946250e-02       1.581108165351e+04 
       3.634579414583e-02       1.573665538139e+04 
       3.651247872175e-02       1.566237149231e+04 
       3.667998681685e-02       1.558820719651e+04 
       3.684834294681e-02       1.551412727115e+04 
       3.701757255968e-02       1.544017875425e+04 
       3.718770208183e-02       1.536627014387e+04 
       3.735875896670e-02       1.529253156353e+04 
       3.753077174662e-02       1.521889888655e+04 
       3.770377008797e-02       1.514537432406e+04 
       3.787778484976e-02       1.507202579706e+04 
       3.805284814622e-02       1.499869464225e+04 
       3.822899341330e-02       1.492553082236e+04 
       3.840625547977e-02       1.485244868274e+04 
       3.858467064307e-02       1.477947966146e+04 
       3.876427675032e-02       1.470667773455e+04 
       3.894511328507e-02       1.463392312065e+04 
       3.912722146003e-02       1.456128951758e+04 
       3.931064431649e-02       1.448875679963e+04 
       3.949542683093e-02       1.441636153217e+04 
       3.968161602943e-02       1.434404012939e+04 
       3.986926111064e-02       1.427181829555e+04 
       4.005841357794e-02       1.419972307674e+04 
       4.024912738186e-02       1.412767110651e+04 
       4.044145907345e-02       1.405576815442e+04 
       4.063546796982e-02       1.398389758918e+04 
       4.083121633294e-02       1.391216075957e+04 
       4.102876956294e-02       1.384047513061e+04 
       4.122819640748e-02       1.376886059418e+04 
       4.142956918856e-02       1.369739365526e+04 
       4.163296404880e-02       1.362594856406e+04 
       4.183846121905e-02       1.355454130344e+04 
       4.204614530950e-02       1.348323508118e+04 
       4.225610562701e-02       1.341189032578e+04 
       4.246843652129e-02       1.334066508038e+04 
       4.268323776324e-02       1.326949244577e+04 
       4.290061495895e-02       1.319831775727e+04 
       4.312068000357e-02       1.312720755001e+04 
       4.334355157950e-02       1.305609182062e+04 
       4.356935570433e-02       1.298499033041e+04 
       4.379822633435e-02       1.291388126116e+04 
       4.403030603060e-02       1.284279656800e+04 
       4.426574669513e-02       1.277161300174e+04 
       4.450471038659e-02       1.270045571039e+04 
       4.474737022528e-02       1.262927555249e+04 
       4.499391139972e-02       1.255804421477e+04 
       4.524453228833e-02       1.248668966312e+04 
       4.549944571216e-02       1.241526615720e+04 
       4.575888033719e-02       1.234377100010e+04 
       4.602308224781e-02       1.227221000210e+04 
       4.629231671657e-02       1.220046510081e+04 
       4.656687019976e-02       1.212858553280e+04 
       4.684705259380e-02       1.205650717546e+04 
       4.713319979325e-02       1.198426140704e+04 
       4.742567659922e-02       1.191181534542e+04 
       4.772488003605e-02       1.183910539513e+04 
       4.803124314517e-02       1.176618160651e+04 
       4.834523933887e-02       1.169294183373e+04 
       4.866738741333e-02       1.161936504861e+04 
       4.899825734104e-02       1.154545039222e+04 
       4.933847698781e-02       1.147115457328e+04 
       4.968873993176e-02       1.139638308395e+04 
       5.004981460057e-02       1.132110428850e+04 
       5.042255499283e-02       1.124535816010e+04 
       5.080791331145e-02       1.116898073423e+04 
       5.120695491489e-02       1.109197748765e+04 
       5.162087609148e-02       1.101418571749e+04 
       5.205102528738e-02       1.093563966475e+04 
       5.249892857912e-02       1.085612613321e+04 
       5.296632038540e-02       1.077569668251e+04 
       5.345518067302e-02       1.069402641993e+04 
       5.396778024234e-02       1.061114587990e+04 
       5.450673609555e-02       1.052683104882e+04 
       5.507507941371e-02       1.044086860272e+04 
       5.567633930890e-02       1.035301812318e+04 
       5.631464627560e-02       1.026300420674e+04 
       5.699486010403e-02       1.017050017576e+04 
       5.772272782069e-02       1.007504640681e+04 
       5.850507770396e-02       9.976069385963e+03 
       5.935005496323e-02       9.872941342424e+03 
       6.026740199833e-02       9.764709127500e+03 
       6.126877880599e-02       9.650232227382e+03 
       6.236810255283e-02       9.527970841123e+03 
       6.358185196559e-02       9.395892705093e+03 
       6.492922092271e-02       9.251306124669e+03 
       6.643190549670e-02       9.090636333498e+03 
